[51,25,15,16,15,15,16,13,10,9,8,4,0,-5,-8,-8,-5,-3,0,7,15,22,28,33,33,32,33,33,31,31,30,28,25,24,23,23,25,25,22,22,24,26,24,19,18,21,25,27,28,30,35,36,36,37,29,-4,-37,-9,54,96,104,95,75,48,27,20,21,23,21,18,17,15,14,11,6,0,-2,-4,-7,-10,-8,-2,7,14,16,18,23,24,22,21,18,17,16,13,11,11,12,10,7,7,8,8,8,8,9,9,8,3,0,0,1,6,12,16,19,20,18,15,14,-1,-46,-61,-5,62,92,94,77,43,13,2,3,4,2,0,0,1,3,3,-1,-5,-7,-11,-16,-16,-11,-4,4,14,22,25,25,23,20,16,13,12,11,10,9,9,9,10,11,8,7,9,11,12,12,10,9,8,6,0,-3,-2,0,3,3,4,5,2,0,-1,-22,-73,-86,-24,45,74,76,60,24,-7,-20,-19,-14,-12,-14,-13,-8,-5,-5,-6,-10,-16,-20,-19,-16,-16,-11,0,11,18,23,28,32,33,31,27,24,23,23,20,19,18,16,14,14,16,17,16,16,15,13,13,11,5,0,-4,-6,-5,-2,-3,-3,-1,2,8,14,9,-25,-70,-51,23,78,96,93,72,37,8,0,0,-2,-5,-6,-5,-6,-11,-18,-23,-28,-33,-39,-45,-48,-44,-35,-24,-14,-7,-3,0,1,1,2,4,6,6,5,2,0,0,0,-1,-2,0,0,-2,-4,-5,-4,-4,-7,-10,-11,-10,-8,-6,-3,-1,0,0,2,1,-14,-56,-76,-31,32,65,73,68,46,13,-5,-7,-4,-6,-9,-11,-14,-13,-9,-9,-14,-19,-24,-27,-28,-27,-21,-12,-3,2,7,11,14,18,16,13,15,19,19,18,18,19,20,20,21,23,27,30,32,33,33,31,31,31,32,33,31,27,21,19,20,21,21,23,23,23,24,26,24,0,-47,-50,14,78,102,99,77,40,9,0,-1,-2,-3,-3,-2,-1,-2,-8,-14,-17,-21,-26,-27,-27,-26,-21,-13,-3,5,11,14,15,15,14,14,15,16,14,12,14,14,15,15,16,16,14,14,16,17,16,16,18,19,19,18,18,17,14,12,14,17,19,20,24,27,28,28,27,13,-31,-56,-6,67,107,114,99,64,28,13,13,14,15,17,16,14,12,9,7,4,0,-6,-12,-14,-9,-3,1,8,17,27,32,30,29,31,34,34,33,31,30,29,29,29,26,25,26,26,25,24,24,23,21,21,22,21,20,20,19,17,15,14,15,18,23,27,29,27,24,25,23,0,-47,-50,13,78,104,108,94,62,30,17,16,18,18,17,14,11,9,7,3,-2,-7,-11,-11,-11,-9,-4,4,14,20,25,30,32,33,32,32,34,33,29,27,27,28,26,26,26,25,24,25,27,26,24,23,24,23,21,19,15,11,12,17,20,22,23,23,24,27,30,21,-18,-56,-27,42,87,100,94,72,42,21,14,12,11,10,11,11,11,8,3,-1,-5,-7,-8,-10,-11,-8,-3,3,12,19,23,24,27,29,30,28,28,28,28,28,28,26,25,24,22,23,25,23,23,24,24,24,24,21,18,18,19,19,16,11,11,14,17,19,21,22,22,24,26,16,-25,-60,-23,49,94,105,92,58,19,0,1,5,5,4,2,0,-1,-4,-7,-10,-15,-19,-21,-21,-20,-17,-9,0,6,12,17,21,23,25,24,23,23,23,21,21,20,19,17,15,16,16,16,17,18,19,20,20,20,21,21,20,20,21,19,14,11,12,14,17,20,22,22,22,24,26,10,-35,-62,-12,62,101,108,92,56,22,9,9,10,9,7,4,4,2,0,-2,-4,-9,-15,-20,-20,-18,-16,-11,-3,3,10,14,17,18,19,19,19,20,19,17,15,15,15,13,12,12,13,15,16,13,11,10,10,12,12,11,10,10,8,4,1,2,5,10,12,11,11,14,16,19,9,-35,-74,-37,39,87,99,90,59,21,0,0,3,3,1,0,-1,-3,-4,-6,-9,-13,-18,-20,-21,-22,-20,-13,-5,2,10,14,16,16,15,15,16,17,14,12,12,12,13,14,14,13,13,15,16,15,15,16,15,16,17,17,16,17,17,14,8,5,6,11,16,18,18,19,21,20,15,-9,-58,-68,-5,63,94,97,76,38,6,-3,0,2,3,2,0,-2,-4,-6,-10,-14,-17,-21,-25,-27,-26,-23,-16,-8,-2,3,8,10,10,10,11,12,11,9,10,9,8,7,8,9,9,9,7,7,9,10,9,9,8,9,9,6,2,0,1,3,8,12,12,12,14,16,13,-15,-59,-55,4,57,78,82,71,43,12,-3,-5,-2,-3,-4,-4,-3,-4,-7,-12,-16,-19,-22,-23,-25,-25,-19,-13,-6,2,9,12,14,17,17,15,10,9,10,11,10,9,9,8,8,8,9,11,10,9,9,10,9,7,6,6,5,2,-2,-4,-1,2,3,4,6,7,8,10,7,-21,-67,-57,12,71,92,87,61,24,-1,-9,-5,-3,-5,-6,-5,-7,-10,-12,-13,-16,-20,-23,-25,-24,-20,-16,-11,-4,3,10,14,14,14,14,15,15,15,15,14,12,12,11,11,13,14,14,16,17,16,16,14,12,11,11,11,10,7,4,1,0,1,0,0,3,8,11,9,9,8,-14,-63,-77,-17,53,85,88,71,35,4,-8,-9,-6,-5,-6,-7,-8,-11,-13,-14,-18,-22,-25,-28,-30,-28,-24,-18,-10,-3,4,9,10,9,9,10,11,10,6,4,6,7,5,4,4,4,5,6,5,4,6,9,9,7,7,8,7,7,6,2,-2,-2,0,1,4,7,9,10,10,11,0,-42,-78,-39,37,83,94,84,52,16,-2,-2,0,0,-1,-2,-2,-4,-8,-12,-15,-17,-20,-25,-28,-27,-23,-17,-10,-4,2,10,14,15,15,15,15,12,9,8,7,6,6,6,7,7,6,5,4,6,7,6,5,5,6,7,6,5,2,0,0,1,3,7,10,11,12,12,11,8,-19,-69,-67,0,64,89,88,66,30,1,-7,-5,-5,-6,-5,-7,-11,-12,-12,-14,-17,-21,-26,-29,-29,-27,-22,-16,-9,-2,4,7,9,12,14,12,9,8,10,10,8,6,6,7,8,8,7,8,11,12,11,10,9,10,10,10,10,8,1,-2,0,2,4,7,10,12,12,10,11,3,-35,-74,-41,34,83,96,88,59,20,0,-3,0,-1,-4,-4,-5,-7,-9,-12,-17,-20,-22,-26,-29,-28,-24,-19,-13,-5,1,5,7,8,8,8,6,4,4,3,3,3,2,2,4,7,9,8,6,7,10,11,11,9,5,5,6,2,-3,-3,-1,1,6,11,12,11,12,15,10,-22,-70,-60,11,74,99,97,73,34,5,-3,-1,0,0,-1,0,-1,-4,-7,-10,-15,-21,-25,-26,-26,-23,-18,-11,-4,2,10,15,15,14,15,15,14,13,12,12,12,10,10,12,12,11,10,11,13,14,13,13,12,11,10,9,8,4,0,0,1,6,11,11,12,13,11,9,-4,-49,-79,-36,37,81,92,81,49,12,-5,-6,-3,-3,-4,-3,-3,-5,-8,-12,-16,-19,-24,-31,-34,-31,-26,-20,-13,-5,0,5,8,9,10,11,11,11,10,9,9,9,7,8,8,7,8,10,10,9,11,11,10,10,9,8,7,4,1,2,7,12,16,18,19,17,15,11,-15,-64,-64,3,70,95,95,77,40,8,0,1,2,1,0,0,1,0,-3,-7,-10,-14,-19,-23,-23,-22,-18,-13,-7,0,9,14,14,15,16,16,15,13,11,12,11,10,9,9,8,7,6,5,5,9,9,6,4,4,3,0,-1,-1,0,2,7,9,9,8,7,9,8,-25,-74,-61,13,74,95,91,66,28,0,-6,-5,-5,-7,-7,-6,-6,-7,-10,-12,-17,-22,-26,-27,-27,-25,-20,-12,-2,6,12,16,17,15,14,14,14,14,14,15,14,12,12,11,11,11,8,8,7,7,7,6,5,1,-1,0,2,5,8,9,7,6,6,8,-4,-45,-68,-25,35,68,76,73,54,22,0,-6,-7,-8,-9,-11,-13,-15,-13,-11,-15,-22,-27,-27,-26,-24,-21,-15,-3,7,15,19,21,21,20,21,21,18,16,16,15,14,10,5,7,10,9,7,6,7,7,7,7,5,2,-1,-2,2,7,11,13,12,12,11,12,8,-20,-67,-60,8,68,90,87,66,31,3,-3,-2,-4,-6,-6,-6,-6,-7,-9,-12,-17,-20,-23,-25,-27,-27,-22,-13,-2,2,5,8,12,14,13,10,9,10,10,9,7,5,5,7,9,8,7,9,11,11,9,9,9,7,1,0,0,4,8,12,13,12,10,11,13,2,-41,-78,-42,33,80,93,84,54,18,-1,-5,-6,-8,-10,-9,-8,-10,-13,-14,-17,-21,-26,-31,-34,-32,-28,-20,-10,-2,4,10,13,15,16,17,17,17,16,16,15,16,15,14,13,13,13,15,15,12,12,13,13,11,8,5,3,3,6,8,10,10,8,9,11,11,-9,-60,-82,-27,44,80,88,79,49,14,-3,-4,-4,-6,-7,-5,-4,-7,-10,-12,-16,-20,-25,-29,-31,-30,-25,-18,-10,-1,7,13,15,16,15,14,15,17,14,10,9,10,11,10,8,7,8,8,8,7,7,6,4,2,2,5,9,13,13,11,12,14,13,7,-21,-57,-42,17,63,78,78,66,41,13,0,0,0,0,-2,-4,-5,-5,-7,-12,-18,-22,-26,-29,-30,-28,-21,-13,-6,0,4,8,11,11,12,11,9,8,8,6,3,0,1,2,3,5,6,6,5,5,6,7,7,3,0,1,5,9,13,15,13,13,15,16,0,-44,-65,-18,48,83,88,77,49,18,3,2,2,0,0,0,0,-1,-2,-4,-7,-11,-14,-17,-18,-18,-13,-6,1,10,19,23,23,24,25,25,24,25,27,27,27,26,25,24,22,22,23,22,21,22,24,25,25,21,19,17,14,13,14,15,20,24,24,22,24,28,26,0,-49,-55,9,78,106,104,85,52,22,11,11,10,7,9,10,6,3,1,-3,-8,-14,-21,-24,-26,-25,-21,-14,-7,0,5,10,12,10,9,10,10,9,8,7,8,9,10,11,11,11,11,10,9,10,11,11,10,11,12,12,9,6,3,5,8,11,13,14,12,11,10,5,-22,-73,-76,-6,62,91,90,68,33,4,-5,-3,0,3,5,6,7,6,5,3,-1,-7,-13,-17,-19,-18,-14,-7,1,11,19,22,22,23,26,28,27,27,28,30,31,32,31,31,33,34,33,36,40,41,41,40,40,42,41,36,30,25,23,23,24,24,23,22,22,20,17,11,-16,-63,-68,-13,40,61,63,52,23,-10,-26,-27,-24,-22,-19,-18,-18,-21,-23,-24,-27,-29,-32,-37,-39,-34,-27,-21,-12,-1,5,9,11,14,17,19,19,20,20,21,22,21,21,21,21,22,22,25,28,27,27,27,28,31,31,25,18,15,18,23,25,25,23,21,21,21,17,-11,-55,-50,10,62,82,84,69,38,10,0,1,1,-2,-4,-3,-3,-5,-8,-12,-17,-22,-25,-26,-28,-29,-24,-16,-8,-1,4,8,7,6,8,9,7,5,2,0,2,3,2,0,0,0,1,1,0,0,2,2,0,-2,-2,-1,0,-3,-9,-12,-11,-8,-3,-1,-2,-2,0,2,3,-7,-47,-81,-45,28,76,88,76,46,12,-5,-6,-4,-4,-4,-5,-7,-10,-11,-13,-17,-22,-26,-31,-32,-27,-24,-21,-16,-7,2,9,12,13,12,11,12,13,12,12,9,6,5,7,9,9,8,7,9,12,14,16,17,16,16,17,17,16,13,9,6,4,4,4,7,11,13,12,11,12,11,-6,-53,-74,-21,51,86,90,75,41,6,-9,-11,-10,-10,-11,-11,-12,-15,-17,-19,-22,-28,-34,-37,-38,-37,-34,-29,-21,-11,-3,1,3,5,8,9,8,9,11,13,13,12,12,14,14,15,14,11,10,11,11,10,8,8,8,7,5,0,-5,-3,1,3,3,4,3,4,6,6,-2,-39,-75,-48,17,58,69,65,49,19,-7,-16,-15,-13,-11,-10,-12,-13,-12,-12,-16,-20,-21,-22,-24,-26,-23,-16,-8,0,7,12,16,18,20,21,19,19,18,15,13,12,10,9,7,6,7,7,5,4,5,8,7,6,6,6,6,8,7,5,4,6,10,14,15,15,15,18,20,16,-9,-56,-59,2,63,88,85,63,28,2,-6,-5,-3,-3,-5,-6,-6,-7,-10,-15,-18,-21,-25,-29,-30,-27,-25,-21,-12,-4,0,4,6,5,4,4,6,5,3,3,2,1,0,0,-1,0,0,-1,-1,0,1,0,0,1,2,2,4,4,4,2,0,-1,0,3,8,10,11,13,14,12,1,-38,-73,-39,35,83,96,85,54,17,0,0,1,1,0,0,0,0,-1,-5,-5,-5,-10,-17,-21,-20,-16,-12,-7,0,8,13,15,18,20,19,16,16,15,12,10,11,11,10,10,10,9,7,7,8,8,7,7,7,8,9,7,2,-2,-4,-4,0,5,7,8,9,10,10,8,-13,-57,-61,-1,59,88,94,82,53,23,8,5,6,7,6,5,4,1,-2,-6,-11,-16,-21,-25,-27,-27,-25,-20,-12,-4,0,3,5,7,9,9,6,4,4,6,6,6,6,8,9,9,9,10,10,9,8,7,6,5,3,1,0,-2,-3,-2,0,4,6,7,8,9,9,0,-37,-72,-42,26,70,82,78,56,23,0,-5,-3,-2,-4,-4,-4,-5,-6,-9,-14,-16,-16,-17,-19,-19,-16,-12,-5,4,11,14,17,20,22,21,18,17,15,14,14,14,11,10,12,11,9,9,11,13,12,12,12,9,8,9,11,9,4,1,0,1,3,4,7,10,12,11,12,6,-29,-71,-48,25,80,97,89,62,24,0,-3,-1,-2,-4,-5,-5,-7,-10,-13,-17,-21,-25,-28,-31,-32,-29,-25,-21,-14,-4,4,7,6,5,5,5,5,7,8,7,7,8,9,10,11,13,15,14,12,13,13,12,14,16,15,14,14,12,8,4,3,6,10,13,16,19,21,21,22,13,-27,-66,-35,39,91,105,96,65,27,6,5,7,5,2,2,0,-3,-5,-4,-6,-13,-20,-24,-26,-25,-22,-18,-12,-4,3,8,11,11,13,13,12,10,7,7,10,10,7,7,6,5,5,6,6,6,6,6,7,8,8,8,6,4,1,0,0,3,5,9,11,10,11,12,12,0,-43,-78,-39,36,82,96,85,52,17,-2,-6,-4,-1,0,-1,-3,-3,-4,-6,-10,-13,-15,-20,-24,-22,-19,-14,-5,2,8,13,17,20,22,21,19,17,16,16,15,14,13,12,11,10,11,13,12,12,12,12,10,9,9,8,6,2,-1,-3,-2,2,7,9,8,7,6,7,7,-11,-56,-68,-12,54,86,92,81,49,15,1,0,0,0,0,1,0,-3,-7,-11,-11,-12,-17,-21,-23,-22,-17,-11,-5,2,10,14,14,15,17,16,15,12,11,9,7,4,4,5,5,8,9,8,9,11,10,9,10,10,7,2,1,3,6,11,12,13,15,15,13,11,-9,-53,-58,-2,54,76,81,75,48,15,0,0,0,-2,-3,-2,-3,-6,-8,-8,-12,-17,-22,-26,-27,-26,-23,-17,-10,-3,4,9,11,12,12,11,11,10,8,8,7,5,4,4,4,5,5,5,4,5,5,5,7,7,6,3,1,0,0,-1,0,4,6,5,4,4,6,4,-22,-68,-67,-1,62,89,88,66,31,4,-4,-3,-3,-3,-1,-2,-5,-5,-5,-8,-14,-20,-24,-26,-27,-25,-20,-14,-8,0,6,8,10,12,12,11,12,13,12,9,8,7,5,4,5,5,25,77,73,10,-18,-8,0,-2,-5,-6,-8,-11,-13,-11,-6,0,4,5,5,5,6,4,-23,-72,-69,1,67,93,91,68,30,1,-6,-5,-5,-5,-4,-4,-5,-7,-10,-13,-17,-20,-24,-29,-32,-29,-24,-16,-8,-2,2,9,12,11,11,11,11,9,9,9,7,4,3,4,3,3,5,6,6,6,7,6,4,4,5,5,3,0,0,3,6,10,13,15,15,14,12,3,-33,-65,-28,42,85,96,90,66,30,6,0,-1,0,-1,-2,-2,-2,-7,-13,-15,-18,-25,-29,-29,-29,-28,-23,-16,-8,0,7,11,12,11,11,11,10,8,8,7,5,4,6,6,5,4,5,5,4,3,2,4,3,0,-2,-4,-5,-3,2,8,10,8,4,3,3,-19,-61,-59,-1,51,73,79,69,38,8,-3,-2,-2,-6,-8,-6,-5,-6,-8,-11,-15,-19,-24,-27,-27,-25,-21,-14,-6,0,6,9,13,15,14,14,14,13,12,11,9,8,9,8,7,9,10,8,8,10,10,10,11,9,7,7,5,1,0,2,7,11,13,11,11,13,11,-2,-42,-74,-37,36,83,94,82,50,14,-2,-3,-2,-3,-3,-3,-5,-5,-4,-8,-14,-20,-23,-25,-25,-27,-26,-21,-13,-4,1,5,8,9,9,9,9,10,10,10,9,8,7,4,3,6,6,4,5,5,5,4,5,6,7,8,8,8,6,2,1,1,4,9,12,11,8,9,6,-19,-68,-72,-5,62,90,90,68,32,3,-6,-6,-6,-5,-5,-6,-7,-11,-15,-16,-20,-24,-28,-29,-30,-29,-24,-15,-3,6,14,20,23,22,19,17,15,14,13,11,9,9,10,12,13,14,16,19,20,19,19,17,12,9,6,3,0,-2,-7,-8,-2,3,6,6,6,5,3,3,-11,-56,-73,-20,44,76,85,77,49,12,-7,-8,-5,-4,-5,-5,-5,-7,-10,-13,-15,-20,-25,-27,-27,-27,-25,-19,-11,-2,4,7,10,14,15,12,11,12,12,9,8,9,10,9,8,7,6,7,8,7,8,9,8,6,3,0,0,0,3,8,10,10,10,10,10,9,-9,-49,-58,-8,47,75,83,74,45,12,-3,-3,-2,-4,-7,-8,-8,-7,-7,-10,-15,-19,-23,-26,-26,-24,-19,-11,-4,4,9,12,14,16,17,16,15,13,11,10,10,8,8,9,8,7,6,6,6,7,8,8,7,8,9,8,6,3,0,0,2,4,6,7,7,10,13,15,6,-29,-71,-53,19,76,93,82,53,19,-1,-7,-7,-7,-7,-6,-5,-5,-10,-13,-14,-15,-20,-25,-27,-25,-23,-18,-9,-4,0,7,13,14,14,14,14,14,11,8,10,12,11,8,6,4,5,6,6,7,6,4,5,6,2,0,1,4,3,-2,-8,-8,-4,0,5,6,4,6,10,11,-1,-46,-80,-38,40,88,97,82,49,15,-2,-3,0,1,0,-1,-3,-6,-7,-9,-11,-15,-20,-24,-25,-23,-21,-17,-10,-2,3,10,13,12,12,13,14,12,10,10,10,9,8,6,6,7,9,8,8,7,7,8,9,9,7,6,5,2,-1,-5,-6,-3,1,5,4,4,3,1,0,-17,-61,-78,-24,43,75,81,71,40,6,-9,-12,-12,-11,-12,-11,-11,-14,-17,-19,-21,-24,-27,-31,-32,-29,-24,-17,-6,3,11,16,19,21,22,23,22,20,18,16,15,14,11,8,7,8,9,11,11,9,10,12,12,8,5,3,0,-1,0,5,8,9,9,8,6,5,-1,-33,-71,-53,12,62,78,78,61,30,3,-5,-5,-5,-9,-11,-12,-11,-9,-9,-13,-20,-24,-26,-29,-30,-29,-25,-19,-13,-5,2,8,11,13,11,9,7,6,5,4,3,3,5,7,8,6,6,6,4,5,6,6,4,2,2,5,6,3,0,-1,0,3,7,9,9,9,9,8,-7,-51,-70,-17,52,86,91,77,43,9,-7,-7,-4,-3,-3,-2,-2,-5,-8,-11,-13,-17,-22,-29,-33,-31,-26,-19,-11,-2,5,10,10,9,10,9,7,10,11,7,5,5,4,3,3,4,3,5,8,6,1,0,2,4,2,1,2,3,0,-2,-3,-4,0,6,11,10,8,11,11,-7,-54,-77,-27,44,84,94,80,45,8,-7,-7,-5,-6,-6,-6,-6,-10,-14,-17,-21,-26,-29,-32,-34,-32,-28,-21,-14,-5,2,8,10,9,8,9,9,10,10,9,6,4,4,4,3,3,4,4,5,8,10,7,4,4,6,7,6,3,-1,-5,-4,-2,2,5,5,3,3,4,4,-14,-61,-77,-19,51,85,89,72,36,3,-10,-10,-8,-11,-14,-12,-11,-13,-14,-13,-12,-15,-19,-22,-21,-19,-16,-12,-5,3,10,15,18,18,15,13,14,15,14,12,10,9,7,6,8,7,5,5,8,9,8,8,7,7,7,8,5,0,-3,-4,-4,0,4,3,3,6,6,6,0,-35,-79,-57,17,72,91,84,54,17,-5,-12,-11,-10,-12,-13,-11,-11,-16,-19,-19,-22,-27,-30,-30,-30,-29,-25,-18,-9,0,5,8,12,13,10,8,9,10,9,8,6,4,3,4,4,5,4,3,4,7,8,6,6,6,6,4,1,-3,-6,-4,-1,0,2,4,5,6,7,6,-9,-55,-82,-32,42,83,92,80,47,12,-6,-9,-5,-3,-5,-6,-5,-6,-10,-12,-17,-23,-26,-28,-28,-28,-27,-25,-17,-4,4,8,11,13,14,14,13,11,9,8,8,7,6,4,5,6,6,5,5,5,6,8,8,6,5,4,1,-1,-1,0,2,7,9,8,8,8,9,8,-11,-57,-71,-15,48,76,82,74,46,11,-7,-10,-10,-9,-8,-7,-7,-9,-13,-16,-19,-22,-27,-32,-34,-31,-27,-21,-13,-5,2,8,11,12,14,14,13,11,10,9,9,9,9,8,7,8,10,10,8,8,9,10,10,9,4,0,-3,-1,1,6,8,8,8,10,10,6,-17,-59,-61,-4,51,73,75,64,37,6,-7,-8,-8,-8,-7,-7,-9,-10,-12,-15,-18,-21,-26,-29,-30,-29,-27,-23,-14,-4,1,5,7,8,10,11,9,6,5,5,4,4,4,4,4,4,4,5,6,7,6,5,5,7,8,7,3,-1,-2,0,5,9,11,10,10,9,8,-4,-47,-76,-34,35,77,86,74,43,9,-6,-9,-10,-12,-12,-9,-9,-10,-12,-16,-19,-23,-28,-30,-31,-31,-29,-24,-18,-11,-3,3,7,8,9,7,6,5,7,12,17,16,13,11,12,15,16,14,11,12,13,14,14,12,8,7,5,0,-4,-5,-1,5,8,8,7,6,6,2,-25,-73,-73,-4,60,87,87,65,27,-1,-10,-11,-11,-10,-9,-9,-9,-10,-12,-14,-18,-23,-28,-33,-34,-32,-27,-20,-13,-6,1,5,8,10,11,10,8,10,13,12,10,10,9,10,10,8,6,6,8,9,10,9,8,7,6,5,3,-1,-3,-2,0,4,6,6,5,5,7,-1,-42,-82,-48,30,79,91,83,54,15,-7,-10,-8,-9,-12,-12,-10,-10,-12,-17,-20,-23,-27,-31,-33,-34,-33,-28,-18,-6,2,6,10,13,15,15,15,13,11,11,11,9,9,8,6,8,10,9,8,6,5,8,7,3,-1,-5,-5,-2,0,1,1,2,3,3,5,-2,-39,-72,-39,26,66,77,76,59,27,3,-4,-4,-4,-5,-5,-5,-6,-7,-11,-17,-20,-23,-26,-28,-28,-26,-22,-14,-2,5,9,13,18,20,20,19,17,17,17,18,17,15,14,15,18,18,14,11,12,14,15,14,13,11,8,4,0,-2,0,4,4,4,4,2,1,-1,-27,-72,-72,-11,48,74,75,55,19,-9,-18,-16,-17,-20,-21,-18,-12,-10,-11,-13,-15,-17,-19,-19,-18,-18,-15,-9]