[0,0,0,0,-2,-2,15,20,0,-15,-12,-5,-7,-7,-7,-2,0,-2,-7,-7,-7,-2,0,2,5,5,0,0,-2,-7,-2,0,0,-2,0,2,2,0,0,0,0,0,0,0,0,0,2,7,2,-2,-7,-5,0,-2,-7,5,25,25,7,-10,-15,-7,-2,-5,-5,-5,-2,-7,-10,-5,0,2,7,10,5,0,0,0,0,-5,-7,-12,-15,-12,-15,-15,-12,-10,-7,-5,-7,-12,-15,-12,-5,0,5,5,7,10,10,12,12,12,15,28,48,43,18,5,5,12,18,18,18,20,20,20,20,25,33,46,56,64,74,77,64,41,23,15,7,-2,-10,-10,-10,-12,-20,-25,-28,-30,-33,-36,-38,-30,-20,-15,-15,-18,-23,-25,-20,-7,0,2,10,30,38,15,-5,-2,7,5,0,0,-5,-12,-15,-15,-18,-20,-18,-7,-5,-5,0,0,0,-2,-25,-87,-139,-128,-87,-56,-33,-12,2,20,41,64,90,110,118,123,144,170,190,203,216,221,229,250,270,283,311,345,355,355,363,378,389,399,400,400,400,400,400,400,400,400,400,400,400,400,400,400,400,400,400,400,400,400,400,400,400,400,400,400,400,400,400,400,400,400,400,400,400,400,400,400,400,400,400,400,400,400,-400,-400,-400,-400,-400,-400,-400,-400,-400,-400,-400,-400,-400,-400,-400,-400,-400,-400,-314,-116,54,203,337,400,400,400,400,400,400,400,400,400,400,400,400,400,400,400,400,400,400,400,400,400,400,400,400,400,400,400,400,400,400,400,400,400,400,400,400,400,400,400,400,400,397,360,327,299,268,232,201,170,141,121,100,79,64,36,-36,-134,-180,-180,-185,-195,-198,-195,-198,-211,-221,-224,-229,-234,-239,-247,-255,-250,-219,-190,-208,-242,-255,-250,-244,-244,-244,-237,-226,-224,-224,-224,-216,-208,-203,-193,-183,-175,-167,-154,-146,-146,-154,-159,-165,-172,-172,-172,-180,-198,-208,-201,-183,-162,-152,-144,-131,-121,-118,-118,-113,-110,-110,-108,-103,-100,-100,-92,-64,-54,-85,-108,-103,-92,-90,-87,-82,-85,-90,-90,-82,-69,-67,-64,-54,-46,-46,-51,-51,-46,-48,-61,-74,-72,-56,-48,-56,-56,-51,-54,-56,-56,-51,-41,-33,-33,-30,-23,-23,-28,-25,-10,2,18,28,41,72,100,97,67,51,56,59,46,28,18,15,12,2,0,0,0,-5,-5,0,2,0,-7,-18,-25,-38,-51,-56,-54,-48,-43,-41,-38,-43,-48,-48,-46,-38,-36,-38,-36,-30,-33,-38,-38,-41,-41,-43,-43,-36,-15,10,10,-15,-30,-25,-12,-5,0,0,0,-2,-7,-10,-7,0,2,0,0,0,0,0,-2,-5,0,2,0,-2,-10,-10,-10,-10,-12,-15,-12,-10,-10,-7,-5,-7,-7,-5,-5,-5,-2,-5,0,2,-5,-7,12,36,15,-10,-15,-10,0,0,-2,-5,-5,-2,0,5,15,20,15,12,10,12,15,12,2,0,0,0,0,-2,-10,-10,-7,-2,0,5,7,12,20,23,18,15,20,25,30,20,5,0,0,-5,-5,10,36,36,2,-15,-7,0,-5,-12,-12,-15,-20,-18,-15,-7,0,10,10,10,7,10,7,-2,-7,-2,2,15,12,-5,-18,-2,7,2,-5,-7,-7,-10,-10,-7,-10,-7,-2,-2,-7,-12,-15,-18,-20,-20,-20,-12,7,20,-2,-28,-28,-15,-12,-15,-10,-5,0,5,10,18,23,25,28,33,38,48,59,54,41,30,23,15,2,0,2,2,0,-2,-12,-25,-30,-25,-18,-15,-20,-25,-25,-12,-2,-5,-23,-28,-15,0,2,0,12,28,10,-10,-5,5,10,5,2,2,2,5,10,12,5,0,5,12,12,10,7,7,7,0,-2,-2,-7,-15,-12,-10,-5,0,0,-5,-7,-7,-15,-18,-18,-18,-20,-18,-7,-2,-10,-23,-28,-25,-20,-20,-2,33,36,0,-23,-12,0,0,-2,2,7,5,0,-2,5,15,15,10,10,15,20,23,23,12,2,-2,-10,-18,-18,-10,-7,-15,-20,-15,-10,-5,0,2,-5,-20,-25,-15,-5,-2,-2,5,12,12,12,15,25,46,87,110,82,48,46,56,48,30,23,23,30,38,41,38,38,43,41,38,36,30,28,20,10,0,-10,-28,-38,-43,-46,-41,-38,-38,-36,-28,-18,-12,-12,-12,-5,10,25,30,25,20,15,10,5,0,-7,-15,0,25,18,-18,-41,-41,-36,-38,-41,-33,-23,-15,-7,-5,-2,0,2,12,15,10,10,12,12,7,5,2,0,-5,-7,-12,-12,-12,-15,-20,-23,-25,-18,-7,-5,-12,-15,-12,-12,-18,-20,-18,-18,-25,-28,-25,-25,-15,15,38,15,-10,-2,15,20,15,12,18,23,23,23,20,25,33,36,33,33,30,23,12,2,0,0,0,-2,-10,-12,-7,-5,-2,-5,-12,-12,-5,0,-2,-10,-10,-2,7,15,18,18,18,12,7,2,2,20,41,23,-2,-2,7,12,5,-2,-2,-2,-5,-2,5,18,25,28,30,25,18,12,15,18,10,2,0,2,0,2,5,10,12,7,5,10,12,7,2,2,-5,-15,-15,-7,-5,-7,-7,-12,-18,-18,-20,-15,2,10,-12,-43,-48,-46,-46,-46,-46,-51,-51,-46,-30,-20,-23,-23,-10,0,2,0,5,7,10,15,25,33,30,12,2,0,5,5,0,-7,-15,-15,-15,-15,-18,-20,-15,-10,-7,-2,-2,-10,-12,-12,-18,-23,-12,2,-2,-33,-43,-30,-23,-23,-28,-30,-28,-23,-18,-7,5,23,41,56,64,69,67,56,43,33,23,12,7,0,0,0,-5,-15,-15,-18,-25,-23,-12,-15,-28,-38,-43,-41,-36,-36,-41,-41,-46,-48,-43,-46,-41,0,38,36,12,20,51,69,74,74,69,61,61,64,59,54,51,43,38,33,30,28,20,10,2,2,2,0,-5,-10,-20,-28,-28,-23,-18,-20,-23,-28,-30,-25,-20,-23,-23,-20,-25,-28,-20,-12,-12,-10,-7,-7,5,20,5,-12,-10,0,0,-5,-12,-15,-15,-12,-7,0,0,-7,-10,-2,0,2,7,5,0,-2,0,-5,-15,-18,-12,-10,-12,-20,-20,-12,0,0,-5,-15,-18,-10,-5,-7,-5,-2,-5,-5,-2,0,0,0,2,18,41,41,15,2,7,12,18,30,38,43,41,33,30,36,36,30,28,28,33,30,23,15,7,5,0,-5,-2,0,-2,-10,-15,-20,-25,-28,-30,-30,-25,-20,-23,-28,-30,-30,-25,-25,-23,-18,-18,-18,-15,-5,12,38,46,28,18,20,15,10,15,18,12,10,15,25,30,30,30,30,30,28,23,18,15,12,7,2,0,2,5,7,7,5,0,0,2,2,-2,-7,-7,-15,-23,-33,-36,-38,-46,-51,-46,-36,-25,-28,-25,-10,0,-7,-20,-15,-7,-7,-12,-10,0,2,5,12,25,33,38,43,33,20,18,25,25,18,15,15,7,2,-2,-7,-5,0,2,0,0,0,0,0,2,2,0,-20,-61,-85,-67,-41,-30,-23,-5,7,15,28,59,74,56,48,64,77,82,95,113,123,128,139,159,177,190,203,219,229,232,232,232,244,265,278,278,281,293,311,330,342,353,358,368,381,397,400,400,400,400,400,400,400,400,400,400,400,400,400,400,400,400,400,400,400,400,400,400,400,400,400,400,400,400,400,400,400,400,-400,-400,-400,-400,-400,-400,-400,-400,-400,-400,-400,-400,-400,-400,-400,-400,-400,-389,-255,-128,-7,100,201,288,363,400,400,400,400,400,400,400,400,400,400,400,400,400,400,400,400,400,400,400,400,400,400,400,400,400,400,400,400,400,400,400,400,400,400,381,342,311,286,265,239,206,188,180,167,146,131,116,100,90,72,46,30,25,-7,-69,-105,-116,-126,-134,-136,-139,-146,-159,-167,-175,-157,-116,-116,-165,-193,-177,-165,-162,-165,-159,-149,-154,-165,-157,-141,-134,-131,-123,-113,-113,-118,-118,-113,-110,-105,-110,-121,-128,-123,-118,-118,-118,-113,-105,-97,-97,-100,-103,-100,-97,-92,-69,-56,-72,-95,-100,-90,-90,-95,-97,-103,-103,-100,-95,-87,-61,-20,-23,-64,-87,-77,-67,-61,-51,-41,-46,-51,-38,-23,-20,-18,-7,-2,-5,0,0,-7,-18,-15,-12,-20,-30,-38,-38,-33,-28,-23,-23,-33,-36,-33,-30,-30,-28,-20,-25,-33,-25,-12,-12,-18,-18,-15,-12,-18,-25,-25,-18,-18,-25,-12,15,20,-10,-33,-33,-33,-30,-23,-18,-18,-10,-5,-10,-10,5,20,23,23,20,23,20,10,0,-5,-12,-20,-25,-23,-15,0,5,0,-12,-10,-5,0,-5,-12,-20,-33,-33,-23,-20,-23,-15,-10,-12,-15,-15,-10,-7,-15,-25,-36,-38,-25,2,15,-15,-54,-61,-48,-41,-36,-28,-18,-12,-20,-30,-25,-15,-10,-10,0,5,2,-5,-7,-2,-2,-2,12,36,43,36,36,41,41,41,41,36,38,48,67,69,74,92,105,95,87,87,87,79,64,48,43,36,28,7,-12,-28,-20,7,23,0,-28,-33,-43,-59,-59,-43,-43,-56,-56,-43,-33,-30,-33,-28,-10,2,-2,-23,-36,-38,-36,-30,-30,-30,-28,-25,-30,-33,-33,-38,-46,-38,-20,-18,-33,-38,-12,18,23,7,-2,-7,-7,0,0,-5,-18,-33,-38,-36,-30,-18,0,23,25,-2,-28,-23,-10,-5,-5,-2,7,23,30,28,33,46,54,56,64,67,54,38,33,23,7,-2,-5,-5,-7,-18,-28,-25,-20,-18,-15,-23,-33,-20,7,20,7,-2,2,30,61,69,54,30,25,33,28,20,10,2,0,0,20,56,51,5,-20,-15,-10,-15,-23,-25,-25,-28,-30,-25,-23,-15,0,7,10,18,36,46,41,33,33,33,23,12,7,7,0,-15,-23,-28,-28,-30,-36,-38,-38,-20,20,48,41,18,5,7,10,15,23,20,2,-10,-15,-20,-18,-2,23,23,-12,-36,-30,-23,-20,-15,0,12,15,10,5,7,15,18,12,18,23,23,20,18,10,5,-2,-15,-23,-12,0,0,0,-5,-10,-12,-10,-10,-15,-15,-12,-15,-12,-10,-15,-20,-18,-10,-7,-7,-10,-7,0,0,-2,2,33,46,15,-15,-10,2,2,-2,-2,2,7,10,12,20,25,28,33,36,38,30,25,20,10,7,7,0,-10,-15,-12,0,5,-10,-33,-28,0,15,7,0,2,0,0,0,-2,-2,2,7,12,18,7,-10,-12,-7,0,15,41,54,20,-10,-5,12,18,5,0,5,10,12,12,7,2,10,12,7,7,15,18,18,15,5,-2,-10,-10,-10,-12,-18,-12,-5,-2,-2,0,2,2,-2,-12,-18,-12,-2,0,-10,-33,-38,-20,-10,-10,-20,-25,-25,-20,0,28,25,-7,-20,-7,-7,-12,-12,-15,-25,-23,-12,-10,-10,-5,10,20,15,12,23,36,36,23,0,-10,-12,-15,-18,-18,-23,-28,-30,-25,-25,-23,-20,-2,23,33,20,10,12,12,5,10,25,30,15,-2,-7,0,23,69,92,61,23,5,-2,0,7,18,20,12,7,5,7,12,12,10,12,7,2,2,2,2,10,20,18,7,5,12,20,18,7,0,-7,-10,-10,-12,-23,-33,-36,-28,-12,-2,0,2,0,-5,-10,-10,-7,-7,0,20,20,-15,-48,-46,-28,-23,-28,-30,-28,-23,-18,-10,-2,0,5,5,2,0,0,-2,-7,-12,-20,-25,-33,-33,-28,-20,-12,-2,7,7,0,0,5,10,15,20,15,10,12,18,25,28,20,10,7,7,2,2,2,-2,-12,-20,-20,-18,-12,-5,0,2,2,0,0,18,41,56,64,61,51,33,18,15,15,7,-2,-5,0,2,10,15,18,15,12,2,-5,-12,-20,-25,-30,-30,-30,-33,-33,-28,-25,-30,-36,-38,-33,-28,-25,-23,-23,-15,7,20,-2,-30,-30,-20,-12,-7,-5,0,15,33,41,38,33,38,41,38,38,36,30,30,30,25,7,-7,-10,-5,-2,0,0,-2,0,0,0,-2,-2,-2,-10,-12,-12,-15,-20,-18,-15,-18,-20,-18,-15,-7,0,0,-7,-5,15,36,20,-10,-12,7,15,7,12,20,18,7,0,-2,-10,-10,7,33,38,23,12,20,25,25,15,2,0,0,-12,-20,0,15,15,7,7,7,5,5,5,0,0,0,2,-2,-18,-18,-5,5,5,-5,-23,-36,-38,-30,-20,-10,18,30,0,-38,-43,-20,-7,-7,0,10,18,12,5,7,15,18,12,10,10,12,15,12,5,-2,-12,-18,-15,-10,-7,-10,-7,0,0,-5,-10,-7,-7,-12,-12,-12,-7,-2,-5,-7,-10,-15,-12,-7,-10,-15,-18,-18,-20,-15,-10,0,28,36,5,-10,-7,-2,0,-2,-7,-5,2,10,12,15,30,38,30,25,25,25,23,18,15,12,10,0,-12,-20,-20,-15,-7,-2,0,2,2,0,0,0,-2,-2,-5,-12,-5,0,2,2,7,10,12,10,10,7,0,0,15,48,56,20,-7,-15,-7,-2,-5,-7,-7,-2,7,18,12,10,15,23,20,15,20,23,18,5,0,-2,-5,-10,-18,-20,-18,-20,-18,-12,-10,-10,-10,-7,-5,-2,-5,-5,-2,2,0,-2,0,7,12,18,12,0,-2,-7,-5,20,48,28,-10,-18,-2,0,-5,0,10,18,18,15,12,7,2,0,0,7,15,18,12,2,-2,-5,-12,-23,-28,-41,-43,-33,-25,-28,-28,-18,-15,-20,-28,-30,-28,-25,-23,-25,-23,-10,-2,-5,-5,-5,-7,-10,-10,-10,-12,-7,15,43,30,-2,-12,0,10,5,0,7,12,7,12,36,48,38,23,25,30,33,30,25,25,18,0,-15,-25,-23,-15,-18,-25,-20,-7,0,0,-5,-12,-7,0,0,-2,0,10,15,10,2,0,-2,0,7,5,-5,-10,-5,0,7,30,38,12,-12,-12,-2,0,2,2,2,2,5,10,12,18,23,33,38,33,28,23,25,25,7,-5,-5,-10,-23,-41,-56,-54,-36,-23,-20,-18,-18,-25,-33,-23,-12,-15,-28,-33,-30,-28,-33,-33,-30,-28,-28,-25,-23,-10,18,46,59,79,85,54,33,43,51,46,28,23,20,23,28,33,33,38,51,54,41,30,25,23,12,0,-15,-30,-41,-33,-33,-43,-51,-54,-56,-56,-51,-43,-41,-33,-25,-23,-23,-25,-30,-36,-28,-18,-12,-12,-10,-2,-2,-10,-18,-18,-23,-20,0,33,51,30,7,7,20,23,23,20,23,33,38,36,33,43,51,51,46,56,69,67,51,38,30,25,20,20,7,0,0,5,7,2,5,2,-5,-15,-12,-12,-23,-30,-30,-36,-43,-54,-48,-36,-33,-46,-56,-61,-69,-72,-56,-36,-5,18,-5,-51,-59,-41,-28,-23,-28,-38,-36,-20,-7,0,15,28,28,23,28,41,46,41,33,15,-5,-30,-28,0,15,18,23,38,56,61,61,61,61,61,56,48,43,41,33,23,12,10,15,23,25,23,18,7,-15,-33,-20,10,25,-2,-36,-41,-36,-38,-41,-38,-38,-54,-72,-72,-61,-59,-69,-67,-51,-36,-30,-30,-28,-18,-15,-18,-25,-25,-20,-15,-7,-5,-5,0,7,30,48,48,48,61,61,38,23,28,41,48,54,48,43,38,33,18,10,23,59,90,77,28,10,15,10,0,0,0,0,0,0,5,18,23,25,30,38,38,30,23,15,7,-7,-33,-48,-54,-54,-61,-69,-72,-77,-79,-67,-51,-51,-61,-61,-51,-38,-36,-41,-43,-38,-38,-46,-41,-20,-2,2,2,5,18,48,61,30,2,2,18,28,23,18,18,18,12,10,12,28,46,56,56,48,41,33,25,18,10,7,0,-2,5,20,23,18,20,18,7,10,23,28,28,25,23,20,12,5,-2,-5,-7,-7,-5,-7,-15,-30,-38,-23,10,20,-12,-46,-46,-36,-25,-20,-20,-20,-12,-7,-10,-12,-7,2,15,25,23,12,7,5,0,-12,-23,-36,-41,-38,-43,-54,-54,-41,-36,-41,-43,-38,-30,-25,-20,-15,-2,10,12,7,10,15,12,7,5,2,0,10,33,51,43,12,-5,-7,-2,-2,-5,-7,-18,-25,-23,-18,-2,23,43,48,43,38,38,30,18,10,10,10,2,-7,-20,-28,-20,-10,-7,-7,0,7,12,10,2,2,10,12,10,15,12,5,0,0,0,5,7,10,23,48,54,25,10,15,18,7,5,20,30,23,15,20,28,30,30,25,15,10,10,7,2,0,-5,-10,-12,-10,-7,-10,-12,-18,-23,-23,-18,-10,-7,-15,-28,-33,-23,-10,0,0,-10,-18,-18,-25,-33,-33,-33,-30,-15,12,15,-18,-43,-36,-20,-12,-7,-7,-20,-28,-30,-28,-25,-15,-5,0,2,0,0,5,12,12,7,10,12,2,-7,-12,-12,-7,-2,-5,-10,-7,0,0,-5,-15,-20,-18,-7,0,0,-5,-5,0,0,2,10,10,18,43,54,30,12,10,5,0,2,5,2,-2,-7,0,10,10,0,-7,0,7,5,2,0,-7,-18,-23,-25,-28,-23,-20,-25,-30,-25,-12,-2,-5,-10,-12,-12,-2,5,12,20,28,33,41,48,51,51,46,36,23,25,56,82,56,12,7,20,20,23,28,25,18,15,23,28,28,23,23,33,30,23,20,18,12,5,0,-10,-20,-23,-20,-12,-18,-23,-25,-20,-15,-20,-33,-46,-51,-51,-48,-46,-48,-56,-61,-67,-69,-64,-59,-46,-10,30,38,10,-23,-41,-38,-30,-36,-38,-33,-28,-20,-10,-2,0,7,15,23,36,46,46,38,36,30,25,20,20,23,33,33,25,25,25,23,20,18,12,10,7,7,7,5,5,10,12,10,7,-2,-18,-15,0,5,2,15,33,12,-20,-25,-12,-12,-18,-20,-15,-12,-15,-12,-2,0,5,12,18,10,0,2,12,12,2,-7,-15,-12,-12,-10,-10,-7,-7,-7,-5,0,-2,-5,0,2,10,20,20,20,20,18,18,18,18,20,25,30,43,67,59,30,20,25,28,23,12,15,20,25,30,30,28,33,43,51,51,43,33,15,7,10,7,2,2,-2,-18,-33,-38,-38,-36,-33,-36,-46,-54,-59,-54,-46,-46,-48,-41,-28,-23,-18,-20,-36,-54,-56,-56,-56,-54,-28,-7,-25,-51,-51,-38,-20,-10,-7,-12,-12,-5,5,7,7,18,33,38,36,33,28,23,20,15,10,0,-2,-7,-10,-7,0,7,7,0,0,0,0,0,12,18,12,7,15,18,12,12,12,7,0,0,0,5,30,56,46,15,5,12,18,15,15,12,15,28,36,36,36,30,28,33,33,28,20,12,7,2,-5,-18,-28,-41,-48,-48,-41,-28,-20,-18,-18,-20,-20,-18,-10,-2,0,0,0,0,2,5,0,0,-2,-7,-12,-10,-2,15,28,2,-18,-18,-7,-10,-10,-7,-2,0,5,2,5,12,10,10,20,25,20,15,12,7,0,-2,0,0,0,-2,-12,-18,-10,-2,-5,-5,-5,0,2,5,0,-12,-25,-28,-18,-15,-23,-25,-28,-38,-51,-61,-48,-10,30,25,-28,-64,-54,-30,-15,-12,-12,-5,5,15,23,28,30,28,30,43,54,54,46,38,36,30,25,25,23,12,7,12,12,12,18,20,12,-5,-25,-43,-46,-33,-18,-20,-25,-23,-18,-15,-10,-2,0,0,0,0,-7,-5,7,23,33,25,15,10,5,2,5,7,5,7,12,15,15,18,7,0,-2,-2,-12,-33,-48,-54,-51,-51,-54,-56,-61,-59,-41,-28,-28,-25,-25,-23,-20,-20,-18,-15,-7,2,20,28,25,28,38,51,67,90,90,56,36,38,38,43,54,64,61,54,51,56,61,67,72,74,79,82,72,59,54,48,25,2,-20,-67,-87,-67,-43,-36,-28,-28,-33,-41,-41,-41,-51,-64,-67,-64,-61,-51,-36,-25,-23,-30,-33,-23,-10,-12,-15,7,30,15,-5,-10,-5,2,12,15,20,25,30,33,36,41,46,46,46,48,54,48,38,25,10,0,-5,-12,-23,-28,-36,-43,-33,-15,-10,-20,-28,-30,-43,-59,-67,-59,-48,-38,-30,-30,-33,-33,-30,-28,-23,-18,-7,18,28,2,-20,-25,-28,-28,-25,-23,-25,-30,-33,-25,-10,0,0,0,2,15,30,43,46,36,23,7,0,-2,-5,-7,-5,-5,-10,-10,-10,-7,-2,0,0,2,7,10,10,18,30,41,41,30,23,20,12,10,25,51,46,15,0,2,12,20,20,25,23,20,25,28,28,25,25,23,12,5,0,-5,-15,-12,-5,0,0,-2,-5,-5,-5,-10,-15,-15,-12,-20,-30,-30,-12,2,7,0,-12,-15,-12,-15,-25,-28,-12,0,0,18,46,43,12,2,10,0,-10,-15,-28,-36,-28,-15,-5,0,7,15,15,7,0,2,2,0,-2,-10,-25,-33,-33,-41,-48,-41,-36,-30,-25,-25,-30,-33,-33,-25,-18,-20,-20,-18,-23,-30,-36,-33,-20,-12,-23,-38,-33,-10,15,12,-15,-23,-10,0,0,2,2,2,7,20,28,33,38,43,51,61,72,72,61,48,30,12,2,0,-10,-23,-30,-38,-38,-33,-30,-36,-43,-33,-10,7,10,0,-12,-10,-7,-20,-33,-36,-30,-30,-41,-48,-36,0,36,30,7,7,18,20,23,25,30,28,15,10,5,2,2,7,12,5,2,10,18,20,15,7,0,-10,-23,-30,-41,-51,-59,-59,-48,-41,-41,-41,-36,-28,-33,-36,-30,-20,-7,0,10,20,25,33,48,54,59,79,100,77,38,33,48,59,59,59,59,56,56,59,59,54,54,56,51,46,41,28,12,7,0,-12,-18,-12,-15,-23,-25,-20,-15,-15,-20,-28,-30,-20,-15,-18,-10,5,15,15,12,7,-5,-23,-25,-25,-36,-51,-51,-28,-7,-30,-67,-69,-48,-43,-56,-67,-72,-69,-59,-43,-30,-18,-5,5,12,15,20,30,38,43,54,56,48,33,25,23,25,30,33,15,-2,-15,-25,-33,-38,-33,-12,0,5,12,15,10,15,18,5,-2,-5,-10,-7,15,30,2,-23,-23,-12,-7,-7,-2,0,5,20,30,33,38,48,54,59,64,61,56,51,41,25,18,10,-5,-25,-33,-28,-25,-25,-20,-18,-20,-20,-7,5,5,0,-2,-7,-12,-12,-10,-20,-33,-30,-20,-5,2,0,-2,-23,-54,-67,-54,-43,-41,-38,-38,-36,-28,-15,-2,2,7,12,25,33,30,30,33,30,23,15,7,0,-2,-2,0,2,0,0,25,51,64,64,56,48,51,51,41,33,30,20,7,-2,-15,-25,-25,-25,-23,-5,7,-7,-28,-20,0,7,15,30,46,54,48,48,54,48,28,0,-5,0,0,0,-2,-5,-10,-12,-15,-12,-15,-18,-25,-36,-41,-48,-54,-59,-64,-61,-51,-38,-23,-5,2,12,15,20,33,51,51,30,12,0,-5,5,18,-5,-43,-54,-41,-38,-41,-28,-2,10,12,15,20,28,38,51,56,54,48,38,20,7,7,7,5,2,5,0,-10,-10,-5,-12,-23,-28,-25,-23,-25,-23,-20,-23,-28,-25,-25,-30,-41,-54,-59,-51,-33,-12,0,7,12,0,-25,-43,-41,-30,-25]